Time(s),Commanded X,Commanded Y,Commanded Z,Actual X,Actual Y,Actual Z
3.0040740966796875e-05,0.10865808354386297,-0.438143381918049,0.1950885318392833,0.4227826961042564,0.031948909225454056,-0.58892147188098
1.0005128383636475,0.13297359589145297,-0.429106413974219,0.19624364712431996,0.42287020888867394,0.03198931835619796,-0.5889245552405403
2.001105785369873,0.156251807264776,-0.418732168130724,0.19741048206621828,0.37634427200792503,-0.01676539181416695,-0.5496285828427637
3.00099515914917,0.178459898121545,-0.40709970277948,0.19858511030163645,0.3405578810535737,-0.03715531671286142,-0.5118319335589792
4.001051425933838,0.20097786641260101,-0.393361115853396,0.19984495066082988,0.34429088128755586,-0.06604269647698413,-0.504662691771557
5.001107215881348,0.22220602559061897,-0.378356526078891,0.2011053143405001,0.38058398074274585,-0.1467618733644028,-0.5227467840867858
6.001038074493408,0.242112968588936,-0.362167714729171,0.20236222708522536,0.461833811737147,-0.2897013738298446,-0.6032431028949954
7.001091957092285,0.260669541593203,-0.344872511495051,0.20361193193995528,0.5450702263961542,-0.36630449393432163,-0.6578702682153931
8.001104831695557,0.27914635731126997,-0.325054779681488,0.20494820952378706,0.5812230322764934,-0.38396600943999054,-0.6547071392524433
9.001064538955688,0.295984649591451,-0.304125060208812,0.2062675802598391,0.6091363842425499,-0.3645108250393138,-0.587285519952394
10.001048803329468,0.31115104111269104,-0.282170181236455,0.20756582353222647,0.6195046584745586,-0.3383915611058901,-0.558382540927365
11.001137733459473,0.324612843815734,-0.259274324618094,0.20883883609338513,0.6249784149476132,-0.30674161375378795,-0.5479976977453473
12.001067399978638,0.33677657078863604,-0.234537541644175,0.2101324436662397,0.6281096238285555,-0.27371500085651035,-0.5415723413407564
13.00104022026062,0.347021223448257,-0.208962122706102,0.21138983020002622,0.6396613297850017,-0.2524745883135752,-0.5565698175293488
14.001125812530518,0.35530816410190996,-0.182639120790046,0.21260644481984092,0.6560452799931116,-0.22149119878368287,-0.5734493207845652
15.001065492630005,0.361597848953298,-0.155659506259056,0.21377770845457192,0.680183077938618,-0.18490002577093909,-0.5895098850114774
16.00011658668518,0.36589718165718094,-0.127699648466473,0.21491531661983482,0.6985860114396818,-0.14536627108484917,-0.6046426570345038
17.000075340270996,0.36805198205513195,-0.0992560056326001,0.2159963962613774,0.7084678986493128,-0.10450407093990237,-0.597710314282058
18.00036859512329,0.368015296180131,-0.070430010138698,0.2170157433781645,0.7107754407505087,-0.06940092674478233,-0.5887975680095918
19.000107049942017,0.365738010033183,-0.0413268586349186,0.2179679465025702,0.7089252969805142,-0.03248805055169383,-0.5787839939770987
20.00043821334839,0.361176667901877,-0.0120981870022189,0.2188461442920035,0.7078023729009817,0.002904048152299348,-0.580641892674485
21.00069260597229,0.35427575727549204,0.0171804827913524,0.21964575616751852,0.7004776219328886,0.04261916519519307,-0.57954518475186
22.001084327697754,0.34497904373083293,0.0463838858393353,0.2203604155669124,0.6894110131943125,0.07821503311672616,-0.5694527034779623
23.00109028816223,0.333227719911722,0.0753770679686351,0.2209833245004337,0.6781212995276349,0.11967000255918428,-0.5677566810228871
24.00048041343689,0.31923122774184803,0.103518108198664,0.2214989488588498,0.6625879373873181,0.16354781997911716,-0.5669924855556003
25.001192569732666,0.302746434033412,0.131162227838363,0.2219115147438024,0.6482800272044834,0.19578835079675375,-0.572754091288259
26.00109076499939,0.28371341598809097,0.158139785356466,0.222212957720607,0.6289430474929273,0.23123652261036617,-0.576874395012967
27.00107192993164,0.262071800894648,0.184261962197994,0.2223945189239371,0.6022954329470823,0.26545152192347005,-0.5625057734832449
28.001117944717407,0.24066638391815598,0.20652615679445,0.2224475978107332,0.5686812861718681,0.3041782313769959,-0.5670385234055099
29.00087857246399,0.217127415377797,0.227789309796987,0.2223919538641449,0.5392219399390958,0.3395010380639628,-0.5777381720578275
30.000986337661743,0.191421453695858,0.247866853216527,0.22221990370538372,0.5139289288639258,0.3697088274859155,-0.5785494491962792
31.000465869903564,0.163520994796713,0.266551211720464,0.2219231532952745,0.4878240766318287,0.3968018057783514,-0.5801083133017453
32.00024390220642,0.13703301061134798,0.281712203752623,0.2215501689635645,0.45709366026063336,0.4217839870546937,-0.5801085373836199
33.00098371505737,0.108814375012243,0.295424996851488,0.22106646807516442,0.4234819895816663,0.4446627933535443,-0.5805351028608444
34.00060749053955,0.07887534810593,0.307488806417045,0.2204652940920408,0.3915539752144871,0.46139261535589576,-0.581844253294208
35.00106859207153,0.04724203562285598,0.317679153608764,0.2197395958055811,0.35940421177510923,0.47473818065834944,-0.5821271782131292
36.001052379608154,0.019425739821613996,0.324602777404535,0.2190293380022785,0.3186667377218898,0.4866483825997642,-0.5825696523531664
37.00103688240051,-0.00950782560618102,0.329871231138641,0.2182221032225422,0.2814746573163965,0.4943308565474838,-0.5831765911200499
38.00108098983765,-0.039495592190608,0.333309755213557,0.217313870149935,0.24511736699655254,0.4967900539615272,-0.582967720796352
39.0009126663208,-0.070451997714154,0.334729257445619,0.21630088259441502,0.20891887454530605,0.49885709167352316,-0.5834801351813752
40.00011873245239,-0.09629894482602401,0.334254007498406,0.2153963021793793,0.17232790046569324,0.5015163503979403,-0.5741281606734994
41.001075983047485,-0.1226367848298126,0.332192411661426,0.2144186954505132,0.14032145769066215,0.5036906246850819,-0.5636710927299217
42.00106334686279,-0.1493693401359945,0.328428340849989,0.2133672541355046,0.10832566823510108,0.5084875878475679,-0.5886390937183898
43.00108003616333,-0.1763802201409243,0.32284406513381,0.21224180753041522,0.08011262931036489,0.5028976842988989,-0.5917820876432829
44.00111651420593,-0.19834169036034188,0.316914221383179,0.2112775556907549,0.05404216626786973,0.49728866040536207,-0.5879869148889969
45.00092911720276,-0.2203091732317153,0.309657983801124,0.21026613531536212,0.02253018114348749,0.49075112813014055,-0.5947891084446123
46.000751972198486,-0.2421850198397683,0.30102175042966,0.20920900248924218,-0.0064531688363392865,0.4882881693972383,-0.6105074195704563
